Time,Voltage,S,Current,S_in
0,0.0,1.0,1.510000000000001e-07,1.0
1,0.0,1.0,1.510000000000001e-07,1.0
2,0.0,1.0,1.510000000000001e-07,1.0
3,0.0,1.0,1.510000000000001e-07,1.0
4,0.0,1.0,1.510000000000001e-07,1.0
5,0.0,1.0,1.510000000000001e-07,1.0
6,0.0,1.0,1.510000000000001e-07,1.0
7,0.0,1.0,1.510000000000001e-07,1.0
8,0.0,1.0,1.510000000000001e-07,1.0
9,0.0,1.0,1.510000000000001e-07,1.0
10,0.0,1.0,1.510000000000001e-07,1.0
11,0.0,1.0,1.510000000000001e-07,1.0
12,0.0,1.0,1.510000000000001e-07,1.0
13,0.0,1.0,1.510000000000001e-07,1.0
14,0.0,1.0,1.510000000000001e-07,1.0
15,0.0,1.0,1.510000000000001e-07,1.0
16,0.0,1.0,1.510000000000001e-07,1.0
17,0.0,1.0,1.510000000000001e-07,1.0
18,0.0,1.0,1.510000000000001e-07,1.0
19,0.0,1.0,1.510000000000001e-07,1.0
20,0.0,1.0,1.510000000000001e-07,1.0
21,0.0,1.0,1.510000000000001e-07,1.0
22,0.0,1.0,1.510000000000001e-07,1.0
23,0.0,1.0,1.510000000000001e-07,1.0
24,0.0,1.0,1.510000000000001e-07,1.0
25,0.025000000000000112,1.0,1.2300000000000003e-06,1.0
26,0.049999999999999926,1.0,2.4817000000000007e-06,1.0
27,0.07500000000000004,1.0,3.7588000000000016e-06,1.0
28,0.09999999999999984,1.0,5.088300000000006e-06,1.0
29,0.12499999999999994,1.0,6.473800000000002e-06,1.0
30,0.15000000000000008,1.0,7.917500000000003e-06,1.0
31,0.17499999999999988,1.0,9.30830000000001e-06,1.0
32,0.2,1.0,1.0867000000000003e-05,1.0
33,0.2250000000000001,1.0,1.2338000000000005e-05,1.0
34,0.2499999999999999,1.0,1.3775000000000006e-05,1.0
35,0.275,1.0,1.5642000000000007e-05,1.0
36,0.30000000000000016,1.0,1.735000000000001e-05,1.0
37,0.325,1.0,1.9382999999999987e-05,1.0
38,0.3500000000000001,1.0,2.5024999999999968e-05,1.0
39,0.3749999999999999,1.0,2.5336999999999985e-05,1.0
40,0.4,1.0,2.9699999999999993e-05,1.0
41,0.4250000000000001,1.0,3.280000000000001e-05,1.0
42,0.4499999999999999,1.0,3.512499999999998e-05,1.0
43,0.475,1.0,3.7720999999999966e-05,1.0
44,0.4999999999999998,1.0,4.019999999999998e-05,1.0
45,0.4999999999999998,1.0,4.019999999999998e-05,1.0
46,0.4999999999999998,1.0,4.019999999999998e-05,1.0
47,0.4999999999999998,1.0,4.019999999999998e-05,1.0
48,0.4999999999999998,1.0,4.019999999999998e-05,1.0
49,0.4999999999999998,1.0,4.019999999999998e-05,1.0
50,0.4999999999999998,1.0,4.019999999999998e-05,1.0
51,0.4999999999999998,1.0,4.019999999999998e-05,1.0
52,0.4999999999999998,1.0,4.019999999999998e-05,1.0
53,0.4999999999999998,1.0,4.019999999999998e-05,1.0
54,0.4999999999999998,1.0,4.019999999999998e-05,1.0
55,0.4999999999999998,1.0,4.019999999999998e-05,1.0
56,0.4999999999999998,1.0,4.019999999999998e-05,1.0
57,0.4999999999999998,1.0,4.019999999999998e-05,1.0
58,0.4999999999999998,1.0,4.019999999999998e-05,1.0
59,0.4999999999999998,1.0,4.019999999999998e-05,1.0
60,0.4999999999999998,1.0,4.019999999999998e-05,1.0
61,0.4999999999999998,1.0,4.019999999999998e-05,1.0
62,0.4999999999999998,1.0,4.019999999999998e-05,1.0
63,0.4999999999999998,1.0,4.019999999999998e-05,1.0
64,0.4999999999999998,1.0,4.019999999999998e-05,1.0
65,0.4999999999999998,1.0,4.019999999999998e-05,1.0
66,0.4999999999999998,1.0,4.019999999999998e-05,1.0
67,0.4999999999999998,1.0,4.019999999999998e-05,1.0
68,0.4999999999999998,1.0,4.019999999999998e-05,1.0
69,0.4999999999999998,1.0,4.019999999999998e-05,1.0
70,0.475,1.0,3.7720999999999966e-05,1.0
71,0.4499999999999999,1.0,3.512499999999998e-05,1.0
72,0.4250000000000001,1.0,3.280000000000001e-05,1.0
73,0.4,1.0,2.9699999999999993e-05,1.0
74,0.3749999999999999,1.0,2.5336999999999985e-05,1.0
75,0.3500000000000001,1.0,2.5024999999999968e-05,1.0
76,0.325,1.0,1.9382999999999987e-05,1.0
77,0.30000000000000016,1.0,1.735000000000001e-05,1.0
78,0.275,1.0,1.5642000000000007e-05,1.0
79,0.2499999999999999,1.0,1.3775000000000006e-05,1.0
80,0.2250000000000001,1.0,1.2338000000000005e-05,1.0
81,0.2,1.0,1.0867000000000003e-05,1.0
82,0.17499999999999988,1.0,9.30830000000001e-06,1.0
83,0.15000000000000008,1.0,7.917500000000003e-06,1.0
84,0.12499999999999994,1.0,6.473800000000002e-06,1.0
85,0.09999999999999984,1.0,5.088300000000006e-06,1.0
86,0.07500000000000004,1.0,3.7588000000000016e-06,1.0
87,0.049999999999999926,1.0,2.4817000000000007e-06,1.0
88,0.025000000000000112,1.0,1.2300000000000003e-06,1.0
89,0.0,1.0,1.510000000000001e-07,1.0
90,0.0,1.0,1.510000000000001e-07,1.0
91,0.0,1.0,1.510000000000001e-07,1.0
92,0.0,1.0,1.510000000000001e-07,1.0
93,0.0,1.0,1.510000000000001e-07,1.0
94,0.0,1.0,1.510000000000001e-07,1.0
95,0.0,1.0,1.510000000000001e-07,1.0
96,0.0,1.0,1.510000000000001e-07,1.0
97,0.0,1.0,1.510000000000001e-07,1.0
98,0.0,1.0,1.510000000000001e-07,1.0
99,0.0,1.0,1.510000000000001e-07,1.0
100,0.0,1.0,1.510000000000001e-07,1.0
101,0.0,1.0,1.510000000000001e-07,1.0
102,0.0,1.0,1.510000000000001e-07,1.0
103,0.0,1.0,1.510000000000001e-07,1.0
104,0.0,1.0,1.510000000000001e-07,1.0
105,0.0,1.0,1.510000000000001e-07,1.0
106,0.0,1.0,1.510000000000001e-07,1.0
107,0.0,1.0,1.510000000000001e-07,1.0
108,0.0,1.0,1.510000000000001e-07,1.0
109,0.0,1.0,1.510000000000001e-07,1.0
110,0.0,1.0,1.510000000000001e-07,1.0
111,0.0,1.0,1.510000000000001e-07,1.0
112,0.0,1.0,1.510000000000001e-07,1.0
113,0.0,1.0,1.510000000000001e-07,1.0
114,0.0,1.0,1.510000000000001e-07,1.0
115,-0.025000000000000112,1.0,-1.5832e-06,1.0
116,-0.049999999999999926,1.0,-2.890000000000003e-06,1.0
117,-0.07500000000000004,1.0,-4.194999999999997e-06,1.0
118,-0.09999999999999984,1.0,-5.496699999999994e-06,1.0
119,-0.12499999999999994,1.0,-6.666700000000006e-06,1.0
120,-0.15000000000000008,1.0,-7.750000000000005e-06,1.0
121,-0.17500000000000004,1.0,-9.558300000000017e-06,1.0
122,-0.2,1.0,-1.1306999999999975e-05,1.0
123,-0.22499999999999995,1.0,-1.295e-05,1.0
124,-0.2499999999999999,1.0,-1.4767e-05,1.0
125,-0.275,1.0,-1.703299999999999e-05,1.0
126,-0.3,1.0,-1.9699999999999974e-05,1.0
127,-0.325,1.0,-2.269999999999999e-05,1.0
128,-0.3500000000000001,1.0,-2.496699999999997e-05,1.0
129,-0.3750000000000001,1.0,-2.7350000000000007e-05,1.0
130,-0.4,1.0,-2.9232999999999976e-05,1.0
131,-0.425,1.0,-3.0417000000000014e-05,1.0
132,-0.4499999999999999,1.0,-3.299999999999997e-05,1.0
133,-0.475,1.0,-3.4666999999999985e-05,1.0
134,-0.5,1.0,-3.6933e-05,1.0
135,-0.5249999999999999,1.0,-3.9949999999999975e-05,1.0
136,-0.55,1.0,-4.233299999999999e-05,1.0
137,-0.5749999999999998,1.0,-4.3900000000000044e-05,1.0
138,-0.6,1.0,-4.8399999999999984e-05,1.0
139,-0.625,1.0,-5.0232999999999985e-05,1.0
140,-0.6499999999999999,1.0,-5.226700000000005e-05,1.0
141,-0.675,1.0,-5.334999999999997e-05,1.0
142,-0.7,1.0,-5.486699999999999e-05,1.0
143,-0.725,1.0,-5.7949999999999986e-05,1.0
144,-0.7500000000000001,1.0,-6.0699999999999985e-05,1.0
145,-0.775,1.0,-6.019999999999997e-05,1.0
146,-0.8,1.0,-6.356699999999997e-05,1.0
147,-0.825,1.0,-6.564999999999997e-05,1.0
148,-0.85,1.0,-6.750000000000006e-05,1.0
149,-0.875,1.0,-7.108300000000005e-05,1.0
150,-0.9,1.0,-7.400000000000001e-05,1.0
151,-0.9250000000000002,1.0,-7.724999999999998e-05,1.0
152,-0.95,1.0,-7.883300000000002e-05,1.0
153,-0.975,1.0,-8.140000000000007e-05,1.0
154,-1.0,1.0,-8.450000000000006e-05,1.0
155,-1.025,1.0,-8.718299999999991e-05,1.0
156,-1.05,1.0,-9.059999999999991e-05,1.0
157,-1.075,1.0,-9.41e-05,1.0
158,-1.1,1.0,-9.779999999999991e-05,1.0
159,-1.125,1.0,-0.00010215000000000003,1.0
160,-1.15,1.0,-0.00010667000000000003,1.0
161,-1.175,1.0,-0.00011066999999999998,1.0
162,-1.2,1.0,-0.00011400000000000005,1.0
163,-1.225,1.0,-0.00011899999999999995,1.0
164,-1.25,1.0,-0.00012533000000000002,1.0
165,-1.275,1.0,-0.0001325,1.0
166,-1.3,1.0,-0.00013767000000000006,1.0
167,-1.325,1.0,-0.00014000000000000004,1.0
168,-1.35,1.0,-0.00014499999999999995,1.0
169,-1.3749999999999998,1.0,-0.00014583,1.0
170,-1.4,1.0,-0.000154,1.0
171,-1.425,1.0,-0.00015649999999999993,1.0
172,-1.45,1.0,-0.00015667000000000008,1.0
173,-1.475,1.0,-0.00016550000000000004,1.0
174,-1.5000000000000002,1.0,-0.00019300000000000008,1.0
175,-1.5000000000000002,1.0,-0.00019300000000000008,1.0
176,-1.5000000000000002,1.0,-0.00019300000000000008,1.0
177,-1.5000000000000002,1.0,-0.00019300000000000008,1.0
178,-1.5000000000000002,1.0,-0.00019300000000000008,1.0
179,-1.5000000000000002,1.0,-0.00019300000000000008,1.0
180,-1.5000000000000002,1.0,-0.00019300000000000008,1.0
181,-1.5000000000000002,1.0,-0.00019300000000000008,1.0
182,-1.5000000000000002,1.0,-0.00019300000000000008,1.0
183,-1.5000000000000002,1.0,-0.00019300000000000008,1.0
184,-1.5000000000000002,1.0,-0.00019300000000000008,1.0
185,-1.5000000000000002,1.0,-0.00019300000000000008,1.0
186,-1.5000000000000002,1.0,-0.00019300000000000008,1.0
187,-1.5000000000000002,1.0,-0.00019300000000000008,1.0
188,-1.5000000000000002,1.0,-0.00019300000000000008,1.0
189,-1.5000000000000002,1.0,-0.00019300000000000008,1.0
190,-1.5000000000000002,1.0,-0.00019300000000000008,1.0
191,-1.5000000000000002,1.0,-0.00019300000000000008,1.0
192,-1.5000000000000002,1.0,-0.00019300000000000008,1.0
193,-1.5000000000000002,1.0,-0.00019300000000000008,1.0
194,-1.5000000000000002,1.0,-0.00019300000000000008,1.0
195,-1.5000000000000002,1.0,-0.00019300000000000008,1.0
196,-1.5000000000000002,1.0,-0.00019300000000000008,1.0
197,-1.5000000000000002,1.0,-0.00019300000000000008,1.0
198,-1.5000000000000002,1.0,-0.00019300000000000008,1.0
199,-1.5000000000000002,1.0,-0.00019300000000000008,1.0
200,-1.475,1.0,-0.00016550000000000004,1.0
201,-1.45,1.0,-0.00015667000000000008,1.0
202,-1.425,1.0,-0.00015649999999999993,1.0
203,-1.4,1.0,-0.000154,1.0
204,-1.3749999999999998,1.0,-0.00014583,1.0
205,-1.35,1.0,-0.00014499999999999995,1.0
206,-1.325,1.0,-0.00014000000000000004,1.0
207,-1.3,1.0,-0.00013767000000000006,1.0
208,-1.275,1.0,-0.0001325,1.0
209,-1.25,1.0,-0.00012533000000000002,1.0
210,-1.225,1.0,-0.00011899999999999995,1.0
211,-1.2,1.0,-0.00011400000000000005,1.0
212,-1.175,1.0,-0.00011066999999999998,1.0
213,-1.15,1.0,-0.00010667000000000003,1.0
214,-1.125,1.0,-0.00010215000000000003,1.0
215,-1.1,1.0,-9.779999999999991e-05,1.0
216,-1.075,1.0,-9.41e-05,1.0
217,-1.05,1.0,-9.059999999999991e-05,1.0
218,-1.025,1.0,-8.718299999999991e-05,1.0
219,-1.0,1.0,-8.450000000000006e-05,1.0
220,-0.975,1.0,-8.140000000000007e-05,1.0
221,-0.95,1.0,-7.883300000000002e-05,1.0
222,-0.9250000000000002,1.0,-7.724999999999998e-05,1.0
223,-0.9,1.0,-7.400000000000001e-05,1.0
224,-0.875,1.0,-7.108300000000005e-05,1.0
225,-0.85,1.0,-6.750000000000006e-05,1.0
226,-0.825,1.0,-6.564999999999997e-05,1.0
227,-0.8,1.0,-6.356699999999997e-05,1.0
228,-0.775,1.0,-6.019999999999997e-05,1.0
229,-0.7500000000000001,1.0,-6.0699999999999985e-05,1.0
230,-0.725,1.0,-5.7949999999999986e-05,1.0
231,-0.7,1.0,-5.486699999999999e-05,1.0
232,-0.675,1.0,-5.334999999999997e-05,1.0
233,-0.6499999999999999,1.0,-5.226700000000005e-05,1.0
234,-0.625,1.0,-5.0232999999999985e-05,1.0
235,-0.6,1.0,-4.8399999999999984e-05,1.0
236,-0.5749999999999998,1.0,-4.3900000000000044e-05,1.0
237,-0.55,1.0,-4.233299999999999e-05,1.0
238,-0.5249999999999999,1.0,-3.9949999999999975e-05,1.0
239,-0.5,1.0,-3.6933e-05,1.0
240,-0.475,1.0,-3.4666999999999985e-05,1.0
241,-0.4499999999999999,1.0,-3.299999999999997e-05,1.0
242,-0.425,1.0,-3.0417000000000014e-05,1.0
243,-0.4,1.0,-2.9232999999999976e-05,1.0
244,-0.3750000000000001,1.0,-2.7350000000000007e-05,1.0
245,-0.3500000000000001,1.0,-2.496699999999997e-05,1.0
246,-0.325,1.0,-2.269999999999999e-05,1.0
247,-0.3,1.0,-1.9699999999999974e-05,1.0
248,-0.275,1.0,-1.703299999999999e-05,1.0
249,-0.2499999999999999,1.0,-1.4767e-05,1.0
250,-0.22499999999999995,1.0,-1.295e-05,1.0
251,-0.2,1.0,-1.1306999999999975e-05,1.0
252,-0.17500000000000004,1.0,-9.558300000000017e-06,1.0
253,-0.15000000000000008,1.0,-7.750000000000005e-06,1.0
254,-0.12499999999999994,1.0,-6.666700000000006e-06,1.0
255,-0.09999999999999984,1.0,-5.496699999999994e-06,1.0
256,-0.07500000000000004,1.0,-4.194999999999997e-06,1.0
257,-0.049999999999999926,1.0,-2.890000000000003e-06,1.0
258,-0.025000000000000112,1.0,-1.5832e-06,1.0
259,0.0,1.0,1.510000000000001e-07,1.0
260,0.0,1.0,1.510000000000001e-07,1.0
261,0.0,1.0,1.510000000000001e-07,1.0
262,0.0,1.0,1.510000000000001e-07,1.0
263,0.0,1.0,1.510000000000001e-07,1.0
264,0.0,1.0,1.510000000000001e-07,1.0
265,0.0,1.0,1.510000000000001e-07,1.0
266,0.0,1.0,1.510000000000001e-07,1.0
267,0.0,1.0,1.510000000000001e-07,1.0
268,0.0,1.0,1.510000000000001e-07,1.0
269,0.0,1.0,1.510000000000001e-07,1.0
270,0.0,1.0,1.510000000000001e-07,1.0
271,0.0,1.0,1.510000000000001e-07,1.0
272,0.0,1.0,1.510000000000001e-07,1.0
273,0.0,1.0,1.510000000000001e-07,1.0
274,0.0,1.0,1.510000000000001e-07,1.0
275,0.0,1.0,1.510000000000001e-07,1.0
276,0.0,1.0,1.510000000000001e-07,1.0
277,0.0,1.0,1.510000000000001e-07,1.0
278,0.0,1.0,1.510000000000001e-07,1.0
279,0.0,1.0,1.510000000000001e-07,1.0
280,0.0,1.0,1.510000000000001e-07,1.0
281,0.0,1.0,1.510000000000001e-07,1.0
282,0.0,1.0,1.510000000000001e-07,1.0
283,0.0,1.0,1.510000000000001e-07,1.0
284,0.0,1.0,1.510000000000001e-07,1.0
285,0.025000000000000112,1.0,1.2300000000000003e-06,1.0
286,0.049999999999999926,1.0,2.4817000000000007e-06,1.0
287,0.07500000000000004,1.0,3.7588000000000016e-06,1.0
288,0.09999999999999984,1.0,5.088300000000006e-06,1.0
289,0.12499999999999994,1.0,6.473800000000002e-06,1.0
290,0.15000000000000008,1.0,7.917500000000003e-06,1.0
291,0.17499999999999988,1.0,9.30830000000001e-06,1.0
292,0.2,1.0,1.0867000000000003e-05,1.0
293,0.2250000000000001,1.0,1.2338000000000005e-05,1.0
294,0.2499999999999999,1.0,1.3775000000000006e-05,1.0
295,0.275,1.0,1.5642000000000007e-05,1.0
296,0.30000000000000016,1.0,1.735000000000001e-05,1.0
297,0.325,1.0,1.9382999999999987e-05,1.0
298,0.3500000000000001,1.0,2.5024999999999968e-05,1.0
299,0.3749999999999999,1.0,2.5336999999999985e-05,1.0
300,0.4,1.0,2.9699999999999993e-05,1.0
301,0.4250000000000001,1.0,3.280000000000001e-05,1.0
302,0.4499999999999999,1.0,3.512499999999998e-05,1.0
303,0.475,1.0,3.7720999999999966e-05,1.0
304,0.4999999999999998,1.0,4.019999999999998e-05,1.0
305,0.4999999999999998,1.0,4.019999999999998e-05,1.0
306,0.4999999999999998,1.0,4.019999999999998e-05,1.0
307,0.4999999999999998,1.0,4.019999999999998e-05,1.0
308,0.4999999999999998,1.0,4.019999999999998e-05,1.0
309,0.4999999999999998,1.0,4.019999999999998e-05,1.0
310,0.4999999999999998,1.0,4.019999999999998e-05,1.0
311,0.4999999999999998,1.0,4.019999999999998e-05,1.0
312,0.4999999999999998,1.0,4.019999999999998e-05,1.0
313,0.4999999999999998,1.0,4.019999999999998e-05,1.0
314,0.4999999999999998,1.0,4.019999999999998e-05,1.0
315,0.4999999999999998,1.0,4.019999999999998e-05,1.0
316,0.4999999999999998,1.0,4.019999999999998e-05,1.0
317,0.4999999999999998,1.0,4.019999999999998e-05,1.0
318,0.4999999999999998,1.0,4.019999999999998e-05,1.0
319,0.4999999999999998,1.0,4.019999999999998e-05,1.0
320,0.4999999999999998,1.0,4.019999999999998e-05,1.0
321,0.4999999999999998,1.0,4.019999999999998e-05,1.0
322,0.4999999999999998,1.0,4.019999999999998e-05,1.0
323,0.4999999999999998,1.0,4.019999999999998e-05,1.0
324,0.4999999999999998,1.0,4.019999999999998e-05,1.0
325,0.4999999999999998,1.0,4.019999999999998e-05,1.0
326,0.4999999999999998,1.0,4.019999999999998e-05,1.0
327,0.4999999999999998,1.0,4.019999999999998e-05,1.0
328,0.4999999999999998,1.0,4.019999999999998e-05,1.0
329,0.4999999999999998,1.0,4.019999999999998e-05,1.0
330,0.475,1.0,3.7720999999999966e-05,1.0
331,0.4499999999999999,1.0,3.512499999999998e-05,1.0
332,0.4250000000000001,1.0,3.280000000000001e-05,1.0
333,0.4,1.0,2.9699999999999993e-05,1.0
334,0.3749999999999999,1.0,2.5336999999999985e-05,1.0
335,0.3500000000000001,1.0,2.5024999999999968e-05,1.0
336,0.325,1.0,1.9382999999999987e-05,1.0
337,0.30000000000000016,1.0,1.735000000000001e-05,1.0
338,0.275,1.0,1.5642000000000007e-05,1.0
339,0.2499999999999999,1.0,1.3775000000000006e-05,1.0
340,0.2250000000000001,1.0,1.2338000000000005e-05,1.0
341,0.2,1.0,1.0867000000000003e-05,1.0
342,0.17499999999999988,1.0,9.30830000000001e-06,1.0
343,0.15000000000000008,1.0,7.917500000000003e-06,1.0
344,0.12499999999999994,1.0,6.473800000000002e-06,1.0
345,0.09999999999999984,1.0,5.088300000000006e-06,1.0
346,0.07500000000000004,1.0,3.7588000000000016e-06,1.0
347,0.049999999999999926,1.0,2.4817000000000007e-06,1.0
348,0.025000000000000112,1.0,1.2300000000000003e-06,1.0
349,0.0,1.0,1.510000000000001e-07,1.0
350,0.0,1.0,1.510000000000001e-07,1.0
351,0.0,1.0,1.510000000000001e-07,1.0
352,0.0,1.0,1.510000000000001e-07,1.0
353,0.0,1.0,1.510000000000001e-07,1.0
354,0.0,1.0,1.510000000000001e-07,1.0
355,0.0,1.0,1.510000000000001e-07,1.0
356,0.0,1.0,1.510000000000001e-07,1.0
357,0.0,1.0,1.510000000000001e-07,1.0
358,0.0,1.0,1.510000000000001e-07,1.0
359,0.0,1.0,1.510000000000001e-07,1.0
360,0.0,1.0,1.510000000000001e-07,1.0
361,0.0,1.0,1.510000000000001e-07,1.0
362,0.0,1.0,1.510000000000001e-07,1.0
363,0.0,1.0,1.510000000000001e-07,1.0
364,0.0,1.0,1.510000000000001e-07,1.0
365,0.0,1.0,1.510000000000001e-07,1.0
366,0.0,1.0,1.510000000000001e-07,1.0
367,0.0,1.0,1.510000000000001e-07,1.0
368,0.0,1.0,1.510000000000001e-07,1.0
369,0.0,1.0,1.510000000000001e-07,1.0
370,0.0,1.0,1.510000000000001e-07,1.0
371,0.0,1.0,1.510000000000001e-07,1.0
372,0.0,1.0,1.510000000000001e-07,1.0
373,0.0,1.0,1.510000000000001e-07,1.0
374,0.0,1.0,1.510000000000001e-07,1.0
375,0.025000000000000112,1.0,1.2300000000000003e-06,1.0
376,0.049999999999999926,1.0,2.4817000000000007e-06,1.0
377,0.07500000000000004,1.0,3.7588000000000016e-06,1.0
378,0.09999999999999984,1.0,5.088300000000006e-06,1.0
379,0.12499999999999994,1.0,6.473800000000002e-06,1.0
380,0.15000000000000008,1.0,7.917500000000003e-06,1.0
381,0.17499999999999988,1.0,9.30830000000001e-06,1.0
382,0.2,1.0,1.0867000000000003e-05,1.0
383,0.2250000000000001,1.0,1.2338000000000005e-05,1.0
384,0.2499999999999999,1.0,1.3775000000000006e-05,1.0
385,0.275,1.0,1.5642000000000007e-05,1.0
386,0.30000000000000016,1.0,1.735000000000001e-05,1.0
387,0.325,1.0,1.9382999999999987e-05,1.0
388,0.3500000000000001,1.0,2.5024999999999968e-05,1.0
389,0.3749999999999999,1.0,2.5336999999999985e-05,1.0
390,0.4,1.0,2.9699999999999993e-05,1.0
391,0.4250000000000001,1.0,3.280000000000001e-05,1.0
392,0.4499999999999999,1.0,3.512499999999998e-05,1.0
393,0.475,1.0,3.7720999999999966e-05,1.0
394,0.4999999999999998,1.0,4.019999999999998e-05,1.0
395,0.5249999999999999,1.0,4.479999999999996e-05,1.0
396,0.55,1.0,5.145000000000005e-05,1.0
397,0.5749999999999998,1.0,3.1491999999999976e-05,1.0
398,0.6,1.0,2.9699999999999993e-05,1.0
399,0.6249999999999998,1.0,3.061699999999997e-05,1.0
400,0.6499999999999999,1.0,3.350000000000003e-05,1.0
401,0.675,1.0,3.5974999999999994e-05,1.0
402,0.7000000000000002,1.0,0.00014691999999999998,1.0
403,0.725,1.0,0.0007063700000000003,1.0
404,0.7500000000000001,1.0,0.0007782500000000003,1.0
405,0.7749999999999999,1.0,0.0008492499999999999,1.0
406,0.8,1.0,0.0009199999999999996,1.0
407,0.8250000000000001,0.0,0.001,1.0
408,0.85,0.0,0.001,0.0
409,0.875,0.0,0.001,0.0
410,0.8999999999999998,0.0,0.001,0.0
411,0.925,0.0,0.001,0.0
412,0.95,0.0,0.001,0.0
413,0.9750000000000002,0.0,0.001,0.0
414,1.0,0.0,0.001,0.0
415,1.025,0.0,0.001,0.0
416,1.0499999999999998,0.0,0.001,0.0
417,1.075,0.0,0.001,0.0
418,1.1,0.0,0.001,0.0
419,1.125,0.0,0.001,0.0
420,1.1499999999999997,0.0,0.001,0.0
421,1.1749999999999998,0.0,0.001,0.0
422,1.2,0.0,0.001,0.0
423,1.2,0.0,0.001,0.0
424,1.2,0.0,0.001,0.0
425,1.2,0.0,0.001,0.0
426,1.2,0.0,0.001,0.0
427,1.2,0.0,0.001,0.0
428,1.2,0.0,0.001,0.0
429,1.2,0.0,0.001,0.0
430,1.2,0.0,0.001,0.0
431,1.2,0.0,0.001,0.0
432,1.2,0.0,0.001,0.0
433,1.2,0.0,0.001,0.0
434,1.2,0.0,0.001,0.0
435,1.2,0.0,0.001,0.0
436,1.2,0.0,0.001,0.0
437,1.2,0.0,0.001,0.0
438,1.2,0.0,0.001,0.0
439,1.2,0.0,0.001,0.0
440,1.2,0.0,0.001,0.0
441,1.2,0.0,0.001,0.0
442,1.2,0.0,0.001,0.0
443,1.2,0.0,0.001,0.0
444,1.2,0.0,0.001,0.0
445,1.2,0.0,0.001,0.0
446,1.2,0.0,0.001,0.0
447,1.2,0.0,0.001,0.0
448,1.1749999999999998,0.0,0.001,0.0
449,1.1499999999999997,0.0,0.001,0.0
450,1.125,0.0,0.001,0.0
451,1.1,0.0,0.001,0.0
452,1.075,0.0,0.001,0.0
453,1.0499999999999998,0.0,0.001,0.0
454,1.025,0.0,0.001,0.0
455,1.0,0.0,0.001,0.0
456,0.9750000000000002,0.0,0.001,0.0
457,0.95,0.0,0.001,0.0
